"Time","Max_vitesse_au_point Monitor: Max_vitesse_au_point Monitor (m/s)"
100.0,0.014249517815187573
200.0,0.013688646024093037
300.0,0.013050707522779703
400.0,0.012518480885773897
500.0,0.012121354695409536
600.0,0.011770814424380662
700.0,0.011361534707248211
800.0,0.010832428000867367
900.0,0.010170771740376961
1000.0,0.009390425868332433
1100.0,0.00851469836197794
1200.0,0.007567745400592698
1300.0,0.006571387639269328
1400.0,0.005542798899114143
1500.0,0.0044985117856413724
1600.0,0.0034360978170308817
1700.0,0.002393006347122453
1800.0,0.0013726461911635346
1900.0,3.2907535206672697E-4
2000.0,6.80022989400019E-4
2100.0,0.0016585949051665075
2200.0,0.0026110796025030363
2300.0,0.00353740458376708
2400.0,0.0044350737007351594
2500.0,0.005302336416214467
2600.0,0.006139247328987632
2700.0,0.006946732872178168
2800.0,0.007722873124299185
2900.0,0.008468091255053887
3000.0,0.009184147464115795
3100.0,0.009871989022948129
3200.0,0.010532087413596172
3300.0,0.011165773496034568
3400.0,0.01177427358928467
3500.0,0.012358350213689636
3600.0,0.012918004300518987
3700.0,0.013454026076965882
3800.0,0.013969322899358707
3900.0,0.014466452878031125
4000.0,0.014945605071376294
4100.0,0.015406687278352817
4200.0,0.01585039868951584
4300.0,0.016277050599721395
4400.0,0.016688629985600945
4500.0,0.01708820602009247
4600.0,0.017476741224789663
4700.0,0.017854280304247756
4800.0,0.018219680061192605
4900.0,0.01857228251503725
5000.0,0.018912375441544945
5100.0,0.019241150468690214
5200.0,0.019560666292639074
5300.0,0.01987254947293269
5400.0,0.020177539467148755
5500.0,0.02047516081525536
5600.0,0.02076470572527002
5700.0,0.02104573280814041
5800.0,0.021317934286574823
5900.0,0.021581243468365593
6000.0,0.021836409001360062
6100.0,0.02208457607789974
6200.0,0.022326878593683375
6300.0,0.02256378658911322
6400.0,0.022795153427885913
6500.0,0.023020545279700818
6600.0,0.02323966380278343
6700.0,0.023452474675544573
6800.0,0.023659039859721752
6900.0,0.023859597495693774
7000.0,0.02405463405033147
7100.0,0.024245009821363232
7200.0,0.02443157566084081
7300.0,0.02461394674436236
7400.0,0.024790371182119263
7500.0,0.024959707735091055
7600.0,0.025124215537268266
7700.0,0.025288432935167977
7800.0,0.025450932963364075
7900.0,0.025598052571768067
8000.0,0.02571430373622273
8100.0,0.02581945288024588
8200.0,0.025958991085027815
8300.0,0.026144633994739486
8400.0,0.02624809592862092
8500.0,0.026083862089220054
8600.0,0.02577659847381058
8700.0,0.025672394784595647
8800.0,0.026102682387413152
8900.0,0.02660668942946066
9000.0,0.025593716225979283
9100.0,0.02321144894187869
9200.0,0.021345971645642992
9300.0,0.021144076617405205
9400.0,0.02307766685695575
9500.0,0.02446022242631047
9600.0,0.02028042966424863
9700.0,0.014698818207992417
9800.0,0.011996435377357086
9900.0,0.01368453850973231
10000.0,0.01283427720357183
10100.0,0.008188799941681622
10200.0,8.312850293990206E-4
10300.0,0.0057068872723827525
10400.0,0.008400549814471863
10500.0,0.005345346060301113
10600.0,0.0016360543497397522
10700.0,0.005962863005208831
10800.0,0.007820724057164385
10900.0,0.010264719835274353
11000.0,0.01347281730599548
11100.0,0.014189612325214374
11200.0,0.013196001243855615
11300.0,0.012507002855353428
11400.0,0.012618727376556215
11500.0,0.013118979920019284
11600.0,0.013684910124892345
11700.0,0.014303731250240906
11800.0,0.015186933608591933
11900.0,0.016440763939196638
12000.0,0.017472227252327242
12100.0,0.01745667975512331
12200.0,0.017373301133319675
12300.0,0.01815729726561659
12400.0,0.01827935206583343
12500.0,0.016375019613643602
12600.0,0.014657201802056796
12700.0,0.015322529831962408
12800.0,0.01773915262912422
12900.0,0.017884349969929374
13000.0,0.016224835958384802
13100.0,0.016312460703595086
13200.0,0.017959693862380395
13300.0,0.01690146678500349
13400.0,0.013387394824694187
13500.0,0.011657335578178088
13600.0,0.013838283899299263
13700.0,0.015857588569519823
13800.0,0.014307926011613634
13900.0,0.012875750631700468
14000.0,0.01395537176573022
14100.0,0.014351139539240021
14200.0,0.012084792018019715
14300.0,0.010485367920038385
14400.0,0.011451688125321399
14500.0,0.012268289542754317
14600.0,0.011365284990826929
14700.0,0.010702113927486611
14800.0,0.011254675875450435
14900.0,0.011465083965619039
15000.0,0.01075773435453605
15100.0,0.01049159480819259
15200.0,0.011248642852077282
15300.0,0.011930934301261171
15400.0,0.011913861070034538
15500.0,0.011898300291941093
15600.0,0.012538090368867308
15700.0,0.013475962376811763
15800.0,0.014086512122590702
15900.0,0.014506710439025544
16000.0,0.015020628429715018
16100.0,0.015313470268304794
16200.0,0.015229548484819317
16300.0,0.015199741924988882
16400.0,0.01552737304250195
16500.0,0.015833530367942772
16600.0,0.01572431232752709
16700.0,0.015498848715269214
16800.0,0.015709782303403894
16900.0,0.016239790193574143
17000.0,0.01651604633400806
17100.0,0.016483851375987044
17200.0,0.01654160076138436
17300.0,0.01681006622698679
17400.0,0.017054335810611748
17500.0,0.017196911345521
17600.0,0.017404886130077523
17700.0,0.017471312718246017
17800.0,0.017210258894852743
17900.0,0.01709471016028326
18000.0,0.017446900593724425
18100.0,0.017717474643751594
18200.0,0.017150568519502564
18300.0,0.016306458679398658
18400.0,0.01638904858967894
18500.0,0.01701041308068861
18600.0,0.016622475213069778
18700.0,0.015186626397280264
18800.0,0.014569786189581359
18900.0,0.015361969054982634
19000.0,0.015454199506127
19100.0,0.013799571202389801
19200.0,0.012243452913128368
19300.0,0.01245162074922529
19400.0,0.01280582052480013
19500.0,0.011258540501557158
19600.0,0.009114405714828301
19700.0,0.008678857058405166
19800.0,0.00923744736852954
19900.0,0.008634882425025978
20000.0,0.0074316985526188565
20100.0,0.007079230259136079
20200.0,0.006911622174121694
20300.0,0.0060802756005997995
20400.0,0.0054489927101292876
20500.0,0.005612064349166064
20600.0,0.005800318406262891
20700.0,0.005571806025312024
20800.0,0.005353187436485829
20900.0,0.005399002795955367
21000.0,0.005478821179641537
21100.0,0.005509245143465131
21200.0,0.005645293769584174
21300.0,0.005856706228675744
21400.0,0.005965091565286765
21500.0,0.00597953002920958
21600.0,0.006104434989388085
21700.0,0.006521728626817654
21800.0,0.0072557440087555325
21900.0,0.00821975104189509
22000.0,0.009286073942254948
22100.0,0.010179984506909028
22200.0,0.010653437907294191
22300.0,0.010789607940304157
22400.0,0.011094530774483056
22500.0,0.011922831390719424
22600.0,0.013034567663118916
22700.0,0.013851138605342534
22800.0,0.014292719757414777
22900.0,0.014541206973288676
23000.0,0.014641325773727653
23100.0,0.014570037253345162
23200.0,0.01423438393496119
23300.0,0.013680385838258534
23400.0,0.013308312745116199
23500.0,0.013632210284938887
23600.0,0.01470248902249893
23700.0,0.015619363626628744
23800.0,0.01572925001911776
23900.0,0.015126080780474166
23900.2,0.015124868639049938
23900.4,0.015123654613224737
23900.600000000002,0.015122437752737129
23900.800000000003,0.015121218735055954
23901.000000000004,0.015119998470623126
23901.200000000004,0.015118776264375673
23901.400000000005,0.015117552356199816
23901.600000000006,0.015116326543029449
23901.800000000007,0.015115098345148667
23902.000000000007,0.015113867645312966
23902.200000000008,0.015112634905679134
23902.40000000001,0.015111400058046467
23902.60000000001,0.015110162321535609
23902.80000000001,0.015108921843285805
23903.00000000001,0.015107678057766432
23903.20000000001,0.015106432269357196
23903.400000000012,0.015105184206754963
23903.600000000013,0.015103932836960876
23903.800000000014,0.015102679014444863
23904.000000000015,0.015101422173685453
23904.200000000015,0.015100163286434544
23904.400000000016,0.015098901657630257
23904.600000000017,0.015097636844333913
23904.800000000017,0.015096368513916547
23905.00000000002,0.015095098088071019
23905.20000000002,0.015093825498549297
23905.40000000002,0.015092550370686617
23905.60000000002,0.01509127275353498
23905.80000000002,0.015089992671631238
23906.000000000022,0.015088710125000019
23906.200000000023,0.0150874250033734
23906.400000000023,0.015086137847791581
23906.600000000024,0.015084848036717202
23906.800000000025,0.015083556948104112
23907.000000000025,0.015082263536739264
23907.200000000026,0.015080968152802675
23907.400000000027,0.015079671454657087
23907.600000000028,0.01507837321472053
23907.80000000003,0.015077072701173564
23908.00000000003,0.015075770406034424
23908.20000000003,0.015074466126223433
23908.40000000003,0.015073160784483418
23908.60000000003,0.015071852486419181
23908.800000000032,0.015070543329609038
23909.000000000033,0.015069231936142593
23909.200000000033,0.015067918509171932
23909.400000000034,0.015066603491720447
23909.600000000035,0.015065285985607914
23909.800000000036,0.015063966519594265
23910.000000000036,0.015062643918877
23910.200000000037,0.015061318759095561
23910.400000000038,0.015059990494188302
23910.60000000004,0.015058660391904219
23910.80000000004,0.01505732701811706
23911.00000000004,0.015055991554862872
23911.20000000004,0.01505465388474461
23911.40000000004,0.01505331253184421
23911.600000000042,0.015051968893620876
23911.800000000043,0.015050623973547738
23912.000000000044,0.015049276288520926
23912.200000000044,0.01504792610293491
23912.400000000045,0.015046572961585595
23912.600000000046,0.015045216913479147
23912.800000000047,0.015043857478920328
23913.000000000047,0.015042494934531022
23913.200000000048,0.015041128849572996
23913.40000000005,0.015039759605884804
23913.60000000005,0.015038387061551917
23913.80000000005,0.015037011659613754
23914.00000000005,0.015035633209188305
23914.20000000005,0.015034251636875128
23914.400000000052,0.015032867434674052
23914.600000000053,0.01503148044840848
23914.800000000054,0.01503009058021284
23915.000000000055,0.015028697879063461
23915.200000000055,0.015027302141829452
23915.400000000056,0.015025903713685574
23940.400000000056,0.014812089275191627
23965.400000000056,0.014576097265493403
23990.400000000056,0.014342734426866965
24015.400000000056,0.014136362406752041
24040.400000000056,0.01397888412811252
24065.400000000056,0.01388767985740536
24090.400000000056,0.0138754436702354
24115.400000000056,0.013947796822307955
24140.400000000056,0.014102940497378945
24165.400000000056,0.014330230302687895
24190.400000000056,0.014611164545411864
24215.400000000056,0.014921494979231915
24240.400000000056,0.015234446236215178
24265.400000000056,0.015524658721954483
24290.400000000056,0.01577271695380806
24315.400000000056,0.01596364752874366
24340.400000000056,0.016089658759593825
24365.400000000056,0.01614891752011446
24390.400000000056,0.016145362222072614
24415.400000000056,0.016083206797519126
24440.400000000056,0.015966025840397004
24465.400000000056,0.01579752879164288
24490.400000000056,0.015579544497990892
24515.400000000056,0.015307778029049923
24540.400000000056,0.014971958710800771
24565.400000000056,0.014558664646829044
24590.400000000056,0.014059111434064362
24615.400000000056,0.013478354755769244
24640.400000000056,0.01283482500263563
24665.400000000056,0.012163212116236622
24690.400000000056,0.011497813972021542
24715.400000000056,0.010875318236725169
24740.400000000056,0.010339111936028853
24765.400000000056,0.009939956907425431
24790.400000000056,0.00974093905658385
24815.400000000056,0.009806989624159986
24840.400000000056,0.010183186190219335
24865.400000000056,0.010861738556206191
24890.400000000056,0.01175996799968002
24915.400000000056,0.012736605574093882
24940.400000000056,0.0136241485354604
24965.400000000056,0.01423111994557185
24990.400000000056,0.014417434079112727
25015.400000000056,0.013989480840401846
25040.400000000056,0.012780595974544527
25065.400000000056,0.010811765642403041
25090.400000000056,0.008309814297572183
25115.400000000056,0.005664727026423784
25140.400000000056,0.00330103033538977
25165.400000000056,0.0016855886258726218
25190.400000000056,0.0018453013244644528
25215.400000000056,0.0032901302675186123
25240.400000000056,0.005202513782566181
25265.400000000056,0.007371047142319137
25290.400000000056,0.009396488643259975
25315.400000000056,0.01085602300838999
25340.400000000056,0.011676075107712165
25365.400000000056,0.012190127133938548
25390.400000000056,0.012816425523276914
25415.400000000056,0.013631350566732151
25440.400000000056,0.01422907598459194
25465.400000000056,0.014095739993436078
25490.400000000056,0.01288004259103227
25515.400000000056,0.010590170693998696
25540.400000000056,0.007742531068057028
25565.400000000056,0.00590763280781934
25590.400000000056,0.006805282364264358
25615.400000000056,0.008892742621580305
25640.400000000056,0.010616929257206137
25665.400000000056,0.01186525540892012
25690.400000000056,0.012888585947526123
25715.400000000056,0.013585421460153575
25740.400000000056,0.013543605147502044
25765.400000000056,0.012404149135757653
25790.400000000056,0.0102864154145526
25815.400000000056,0.008055634520962874
25840.400000000056,0.007174739761051949
25865.400000000056,0.00801707323236499
25890.400000000056,0.009391360520196153
25915.400000000056,0.01061578941554511
25940.400000000056,0.011634152436305481
25965.400000000056,0.012373409915300436
25990.400000000056,0.012538373894142191
26015.400000000056,0.011786283408521262
26040.400000000056,0.010011089568722719
26065.400000000056,0.00771040641663072
26090.400000000056,0.0062335100375785785
26115.400000000056,0.006729270049566948
26140.400000000056,0.008245847599693655
26165.400000000056,0.00974001050763298
26190.400000000056,0.011016010174853246
26215.400000000056,0.012039292941548424
26240.400000000056,0.012549251660071113
26265.400000000056,0.012224800081819698
26290.400000000056,0.010878656610271781
26315.400000000056,0.008778987086879653
26340.400000000056,0.006866345249343608
26365.400000000056,0.006540881228462338
26390.400000000056,0.007782066396746518
26415.400000000056,0.009331499863563852
26440.400000000056,0.010645827965873371
26465.400000000056,0.011712582106981445
26490.400000000056,0.012463608799813583
26515.400000000056,0.012610111640955934
26540.400000000056,0.011857568072702525
26565.400000000056,0.010132596132360604
26590.400000000056,0.00791706661224217
26615.400000000056,0.0064499920551451834
26640.400000000056,0.006905326142984034
26665.400000000056,0.008511767419258168
26690.400000000056,0.010124186909902216
26715.400000000056,0.011435289760949392
26740.400000000056,0.012421590702638093
26765.400000000056,0.01287612063452603
26790.400000000056,0.012532096039246595
26815.400000000056,0.01123468407081534
26840.400000000056,0.009330278481898506
26865.400000000056,0.007764359070464292
26890.400000000056,0.0076230908389477514
26915.400000000056,0.008753860692194386
26940.400000000056,0.01018061223407778
26965.400000000056,0.011413855125788207
26990.400000000056,0.012342804824572453
27015.400000000056,0.012794136324751185
27040.400000000056,0.012522329541235526
27065.400000000056,0.011365707384026626
27090.400000000056,0.0096070881298533
27115.400000000056,0.008083055627145301
27140.400000000056,0.007772603291564668
27165.400000000056,0.008664464007476915
27190.400000000056,0.00994536411114991
27215.400000000056,0.011114707132348016
27240.400000000056,0.012000613125348766
27265.400000000056,0.012397188232993132
27290.400000000056,0.01206967977638706
27315.400000000056,0.010895419976511642
27340.400000000056,0.009176387853542108
27365.400000000056,0.00774553700603234
27390.400000000056,0.007536455147996196
27415.400000000056,0.00848605650731155
27440.400000000056,0.009791434022925186
27465.400000000056,0.010977366948467158
27490.400000000056,0.011872642233808932
27515.400000000056,0.012270934911941757
27540.400000000056,0.011947895164538265
27565.400000000056,0.010791544485451792
27590.400000000056,0.009109836548977738
27615.400000000056,0.007724734679381303
27640.400000000056,0.007544846984849881
27665.400000000056,0.00850370959868614
27690.400000000056,0.009815024825871923
27715.400000000056,0.01100528862236201
27740.400000000056,0.011902722110930124
27765.400000000056,0.01230698479337405
27790.400000000056,0.012002739880406456
27815.400000000056,0.010881586386429356
27840.400000000056,0.009244652409157995
27865.400000000056,0.0078865672159791
27890.400000000056,0.007679923931653739
27915.400000000056,0.008584172804091262
27940.400000000056,0.009856899430169761
27965.400000000056,0.011026949251236212
27990.400000000056,0.011914083479430591
28015.400000000056,0.012319224885631565
28040.400000000056,0.012029623123806543
28065.400000000056,0.010934922780390897
28090.400000000056,0.009324380925709383
28115.400000000056,0.007968006589998624
28140.400000000056,0.007723881761676783
28165.400000000056,0.00858413331609944
28190.400000000056,0.009833898599483476
28215.400000000056,0.010998410418047829
28240.400000000056,0.011893086648737932
28265.400000000056,0.012323559394983554
28290.400000000056,0.012073725013450092
28315.400000000056,0.01102555343647044
28340.400000000056,0.00944096773914555
28365.400000000056,0.008059174900653233
28390.400000000056,0.007743625691742619
28415.400000000056,0.00854826320751326
28440.400000000056,0.009781884529044197
28465.400000000056,0.010952017696832846
28490.400000000056,0.011867850744470918
28515.400000000056,0.012344091200593781
28540.400000000056,0.012158897091958122
28565.400000000056,0.011182618459520611
28590.400000000056,0.009632793156812113
28615.400000000056,0.008205417167375752
28640.400000000056,0.007775960589856115
28665.400000000056,0.00849264066797507
28690.400000000056,0.009700898038926507
28715.400000000056,0.010878219045949664
28740.400000000056,0.01182014784175114
28765.400000000056,0.01235046183394724
28790.400000000056,0.012242967010813425
28815.400000000056,0.011353127434229431
28840.400000000056,0.00984604812092841
28865.400000000056,0.008366249690274531
28890.400000000056,0.00779954095753996
28915.400000000056,0.008408100604688069
28940.400000000056,0.009584316642081822
28965.400000000056,0.010771303648015722
28990.400000000056,0.011743259690581253
29015.400000000056,0.012332856446244038
29040.400000000056,0.012310842309789965
29065.400000000056,0.011517950105904054
29090.400000000056,0.010063766595132582
29115.400000000056,0.008535348506203364
29140.400000000056,0.007821325442909787
29165.400000000056,0.008303751945111456
29190.400000000056,0.009442483745165535
29215.400000000056,0.010641009967244769
29240.400000000056,0.011644689549040016
29265.400000000056,0.012295164491713483
29290.400000000056,0.012362568807308554
29315.400000000056,0.011674610075610126
29340.400000000056,0.01028575356550524
29365.400000000056,0.008719326421663605
29390.400000000056,0.007855260844698543
29415.400000000056,0.00819549038395756
29440.400000000056,0.009286619666212383
29465.400000000056,0.010495374863419811
29490.400000000056,0.01153165164184879
29515.400000000056,0.01224139805218342
29540.400000000056,0.012399157943783084
29565.400000000056,0.011821123291245886
29590.400000000056,0.010507733302139482
29615.400000000056,0.008918360235883169
29640.400000000056,0.007910046889137757
29665.400000000056,0.008094506815497539
29690.400000000056,0.009125166206510566
29715.400000000056,0.01034036064330542
29740.400000000056,0.011408238305036301
29765.400000000056,0.012174118455813607
29790.400000000056,0.012421041712050737
29815.400000000056,0.011953218168844974
29840.400000000056,0.010724599715401243
29865.400000000056,0.009128770484585238
29890.400000000056,0.007987188206054052
29915.400000000056,0.008005316286462111
29940.400000000056,0.008961647227665563
29965.400000000056,0.010178323959292458
29990.400000000056,0.011275517055225198
30015.400000000056,0.012094224647293254
30040.400000000056,0.012427313364680568
30065.400000000056,0.01206903191019071
30090.400000000056,0.010934413614415706
30115.400000000056,0.009347976878497727
30140.400000000056,0.008086823600677162
30165.400000000056,0.007932230524233386
30190.400000000056,0.008800176909696701
30215.400000000056,0.010011327249538909
30240.400000000056,0.011136304835272637
30265.400000000056,0.012003649255026774
