"Time","Max_vitesse_au_point Monitor: Max_vitesse_au_point Monitor (m/s)"
100.0,0.001900569855934096
200.0,0.0018974292615894282
300.0,0.0018917412089649592
400.0,0.0018868311017286035
500.0,0.0018819077231455596
600.0,0.0018769306188914927
700.0,0.0018718627979978923
800.0,0.0018666752439457923
900.0,0.0018613364081829788
1000.0,0.0018558035371825105
1100.0,0.0018500159494578845
1200.0,0.0018438926781527705
1300.0,0.0018373320635873827
1400.0,0.0018302131211385133
1500.0,0.0018224038358312105
1600.0,0.0018137596198357644
1700.0,0.0018041267176158733
1800.0,0.001793360308511183
1900.0,0.001781330589437858
2000.0,0.0017679308075457814
2100.0,0.0017530859622638673
2200.0,0.0017367562686558813
2300.0,0.0017189570353366435
2400.0,0.0016996821213979274
2500.0,0.0016789951187092813
2600.0,0.001657034968957305
2700.0,0.0016338973364327103
2800.0,0.0016097104526124897
2900.0,0.0015846050519030548
3000.0,0.0015587296220473984
3100.0,0.0015322275285143436
3200.0,0.0015052112867124444
3300.0,0.0014777594187762662
3400.0,0.0014499307726509954
3500.0,0.0014217935968190523
3600.0,0.0013933962909504914
3700.0,0.0013647609739564457
3800.0,0.0013358897413127202
3900.0,0.001306769961956896
4000.0,0.0012773749476764414
4100.0,0.0012476687552407414
4200.0,0.00121760429465212
4300.0,0.0011871266760863368
4400.0,0.0011561819992493855
4500.0,0.0011247166548855674
4600.0,0.001092676626285564
4700.0,0.001060019421856893
4800.0,0.0010266883182340036
4900.0,9.926560887835402E-4
5000.0,9.578773897375785E-4
5100.0,9.223465458492505E-4
5200.0,8.859909430615568E-4
5300.0,8.488659659638393E-4
5400.0,8.108637412085436E-4
5500.0,7.718934066369568E-4
5600.0,7.323087775158882E-4
5700.0,6.921644380795047E-4
5800.0,6.511888495896497E-4
5900.0,6.095808639678033E-4
6000.0,5.673112609681722E-4
6100.0,5.239729580383647E-4
6200.0,4.8001702089460414E-4
6300.0,4.3557550089156835E-4
6400.0,3.906794445404519E-4
6500.0,3.4542306821659164E-4
6600.0,2.9983914283273234E-4
6700.0,2.539997367495248E-4
6800.0,2.0798530386775916E-4
6900.0,1.6187140864597156E-4
7000.0,1.1574084875383528E-4
7100.0,6.96806662461058E-5
7200.0,2.3765900594417608E-5
7300.0,2.1930461153973276E-5
7400.0,6.732799557571688E-5
7500.0,1.12361079122606E-4
7600.0,1.5696598893771152E-4
7700.0,2.0107475211366926E-4
7800.0,2.4462988221829896E-4
7900.0,2.8758425833089125E-4
8000.0,3.298803203506634E-4
8100.0,3.714747144840671E-4
8200.0,4.123305625398907E-4
8300.0,4.5241088810153707E-4
8400.0,4.916820980726377E-4
8500.0,5.30116580194066E-4
8600.0,5.677005538020721E-4
8700.0,6.04408007348197E-4
8800.0,6.402241851903969E-4
8900.0,6.751415785404071E-4
9000.0,7.091496518115993E-4
9100.0,7.42248070309973E-4
9200.0,7.744356553303506E-4
9300.0,8.057156810537078E-4
9400.0,8.360981300938879E-4
9500.0,8.655909914523639E-4
9600.0,8.9420820586395E-4
9700.0,9.219636413038637E-4
9800.0,9.48868837440847E-4
9900.0,9.749388409553526E-4
10000.0,0.001000185860904186
10100.0,0.0010246334422861945
10200.0,0.0010483105434127187
10300.0,0.001071229344236746
10400.0,0.0010934053570999117
10500.0,0.0011148534249559373
10600.0,0.0011355998867709461
10700.0,0.001155675039632783
10800.0,0.001175097364473604
10900.0,0.0011938943644133153
11000.0,0.0012120846950069515
11100.0,0.0012296873028484338
11200.0,0.001246726809778199
11300.0,0.0012632433790820258
11400.0,0.0012792370398639896
11500.0,0.0012947231880503006
11600.0,0.0013097175688131736
11700.0,0.0013242367422320646
11800.0,0.001338299916835431
11900.0,0.0013519252243091688
12000.0,0.001365122501748244
12100.0,0.0013779061555487216
12200.0,0.001390295947211601
12300.0,0.0014023098920077726
12400.0,0.0014139562263212793
12500.0,0.001425246533476905
12600.0,0.0014361968205813334
12700.0,0.001446823007429776
12800.0,0.0014571335050295251
12900.0,0.0014671382086827234
13000.0,0.0014768498367634122
13100.0,0.0014862805546727918
13200.0,0.001495439384598292
13300.0,0.001504336018115521
13400.0,0.0015129800303847164
13500.0,0.0015213801234511893
13600.0,0.0015295454941254326
13700.0,0.0015374846116220264
13800.0,0.0015452046645871367
13900.0,0.001552712725251445
14000.0,0.0015600166516493274
14100.0,0.0015671235160114288
14200.0,0.001574039342830574
14300.0,0.0015807703603265542
14400.0,0.0015873229131340484
14500.0,0.0015937022981507547
14600.0,0.0015999143070381597
14700.0,0.0016059643822128181
14800.0,0.0016118574422218574
14900.0,0.001617598114574257
15000.0,0.001623191463336501
15100.0,0.001628641999602226
15200.0,0.0016339537396999726
15300.0,0.001639130758165913
15400.0,0.0016441770422249348
15500.0,0.0016490964335828067
15600.0,0.0016538921918679635
15700.0,0.001658567780436258
15800.0,0.0016631265171248488
15900.0,0.001667571457835804
16000.0,0.00167190589130209
16100.0,0.0016761326405953644
16200.0,0.001680254557890934
16300.0,0.0016842741461186932
16400.0,0.001688194053727128
16500.0,0.001692016783646013
16600.0,0.0016957447805972096
16700.0,0.00169938025647187
16800.0,0.0017029253649538526
16900.0,0.0017063822306228756
17000.0,0.0017097527452280149
17100.0,0.0017130385094802061
17200.0,0.0017162417643744566
17300.0,0.0017193639359985688
17400.0,0.001722406712374731
17500.0,0.0017253716942138356
17600.0,0.0017282604240188672
17700.0,0.00173107418235804
17800.0,0.0017338141333845143
17900.0,0.0017364818196012727
18000.0,0.0017390787253039719
18100.0,0.0017416060437487114
18200.0,0.001744065259230216
18300.0,0.0017464575359025947
18400.0,0.0017487841252296402
18500.0,0.0017510454637681466
18600.0,0.0017532428902936699
18700.0,0.0017553780055174072
18800.0,0.0017574515661371991
18900.0,0.0017594646780997795
19000.0,0.0017614185637646127
19100.0,0.0017633139216247434
19200.0,0.0017651512173391096
19300.0,0.0017669312658162401
19400.0,0.001768655085689354
19500.0,0.0017703237246966795
19600.0,0.0017719379977452843
19700.0,0.0017734988943660791
19800.0,0.0017750069675316518
19900.0,0.0017764626538
20000.0,0.0017778657494451865
20100.0,0.0017792172439986403
20200.0,0.0017805179232624948
20300.0,0.001781768631251229
20400.0,0.0017829701246641363
20500.0,0.0017841235676553972
20600.0,0.0017852293967841814
20700.0,0.0017862871172860649
20800.0,0.0017872971657199018
20900.0,0.001788260240578497
21000.0,0.001789176691108868
21100.0,0.0017900474777384728
21200.0,0.0017908746086324435
21300.0,0.0017916587822837634
21400.0,0.0017924004934568684
21500.0,0.001793098490688668
21600.0,0.001793752221005104
21700.0,0.0017943630813908537
21800.0,0.001794926735373515
21900.0,0.0017954485962656949
22000.0,0.0017959331460556326
22100.0,0.0017963790750683622
22200.0,0.0017967872855248386
22300.0,0.001797154197646803
22400.0,0.0017974801315760994
22500.0,0.0017977637485326009
22600.0,0.0017980035351149943
22700.0,0.001798206738171244
22800.0,0.001798372542798676
22900.0,0.0017985018221115092
23000.0,0.0017985923933114567
23100.0,0.0017986458280044707
23200.0,0.0017986631448215897
23300.0,0.0017986474869792315
23400.0,0.0017985967298870594
23500.0,0.0017985078176426693
23600.0,0.0017983825255788231
23700.0,0.001798223618585259
23800.0,0.0017980294959332327
23900.0,0.001797804377681119
24000.0,0.0017975490496205356
24100.0,0.0017972700310343597
24200.0,0.001796959784030135
24300.0,0.001796615922091402
24400.0,0.0017962358549875287
24500.0,0.0017958242393306665
24600.0,0.0017953942882798178
24700.0,0.0017949360483301522
24800.0,0.00179444791876992
24900.0,0.0017939297831977912
25000.0,0.0017933813505817196
25100.0,0.001792802446305781
25200.0,0.001792187918993757
25300.0,0.001791540679041995
25400.0,0.0017908759186546037
25500.0,0.0017901853432379811
25600.0,0.0017894644417036877
25700.0,0.0017887132722625746
25800.0,0.0017879321841629272
25900.0,0.0017871217303623576
26000.0,0.0017862846175218557
26100.0,0.0017854244253885218
26200.0,0.0017845353331895815
26300.0,0.001783623336328092
26400.0,0.001782686746756033
26500.0,0.00178172669950474
26600.0,0.0017807424669725967
26700.0,0.001779735242374788
26800.0,0.0017787075286411732
26900.0,0.0017776462581348567
27000.0,0.0017765569605581693
27100.0,0.0017754440596894283
27200.0,0.0017743095054572413
27300.0,0.0017731521045851986
27400.0,0.0017719723518336617
27500.0,0.0017707706837550433
27600.0,0.0017695473913764902
27700.0,0.0017682933942693687
27800.0,0.0017670096237741872
27900.0,0.001765701260394151
28000.0,0.0017643701668017557
28100.0,0.0017630159355457756
28200.0,0.0017616386539570908
28300.0,0.001760238584015941
28400.0,0.001758815551116064
28500.0,0.0017573726402784224
28600.0,0.0017559093277125404
28700.0,0.0017544231396256142
28800.0,0.0017529147745746984
28900.0,0.001751384931105888
29000.0,0.0017498339294173399
29100.0,0.001748261449417351
29200.0,0.0017466681023311876
29300.0,0.0017450544702835998
29400.0,0.0017434195928922275
29500.0,0.0017417622478553036
29600.0,0.0017400829008661354
29700.0,0.0017383829780359737
29800.0,0.0017366627995081159
29900.0,0.0017349227436031637
30000.0,0.0017331627811897551
30100.0,0.0017313832323713478
30200.0,0.001729583951641814
30300.0,0.0017277640366808898
30400.0,0.001725923516591631
30500.0,0.001724063147954754
30600.0,0.0017221834836413494
30700.0,0.0017202851346820366
30800.0,0.0017183679553916483
30900.0,0.0017164320038227366
31000.0,0.0017144777455648309
31100.0,0.0017125046274561006
31200.0,0.001710512358353481
31300.0,0.0017085009672716486
31400.0,0.0017064710361184257
31500.0,0.001704423408808926
31600.0,0.0017023577068549425
31700.0,0.001700274163015203
31800.0,0.0016981731846753324
31900.0,0.0016960548300335465
32000.0,0.0016939186625563201
32100.0,0.0016917644494937691
32200.0,0.0016895923655863877
32300.0,0.0016874029930315237
32400.0,0.0016851966231035927
32500.0,0.001682973255996576
32600.0,0.0016807332412566113
32700.0,0.0016784767537960847
32800.0,0.0016762039395087373
32900.0,0.001673914274893951
33000.0,0.0016716079059160168
33100.0,0.0016692850658507074
33200.0,0.0016669457842513025
33300.0,0.0016645904399345752
33400.0,0.0016622192661629026
33500.0,0.0016598324379674602
33600.0,0.0016574301594637364
33700.0,0.0016550124601102968
33800.0,0.0016525791655961767
33900.0,0.0016501303924956834
34000.0,0.0016476660246257206
34100.0,0.0016451864694433968
34200.0,0.0016426918432144494
34300.0,0.0016401825531256033
34400.0,0.0016376588317372246
34500.0,0.0016351204749845251
34600.0,0.0016325676278839756
34700.0,0.0016300000858499514
34800.0,0.0016274177317353229
34900.0,0.0016248207684793653
35000.0,0.0016222095150761392
35100.0,0.0016195842322167754
35200.0,0.0016169452388259127
35300.0,0.0016142927084042819
35400.0,0.0016116268725340692
35500.0,0.0016089477883246628
35600.0,0.0016062557167995698
35700.0,0.0016035504816778248
35800.0,0.0016008315874048748
35900.0,0.0015980992660073754
36000.0,0.0015953538078829087
36100.0,0.0015925955037233567
36200.0,0.0015898245861907991
36300.0,0.0015870412882777727
36400.0,0.0015842455814879786
36500.0,0.0015814370303190175
36600.0,0.0015786151992481868
36700.0,0.0015757804971185125
36800.0,0.0015729327802764678
36900.0,0.0015700721968228814
37000.0,0.0015671994189134719
37100.0,0.0015643149733649145
37200.0,0.0015614189507553722
37300.0,0.0015585115001840566
37400.0,0.0015555903847293408
37500.0,0.001552656946409949
37600.0,0.0015497118875310333
37700.0,0.001546755502970646
37800.0,0.001543788000160957
37900.0,0.0015408100228221637
38000.0,0.0015378196246703306
38100.0,0.0015348181180494188
38200.0,0.0015318060288270435
38300.0,0.001528783270903789
38400.0,0.0015257500777127273
38500.0,0.001522706565735032
38600.0,0.001519652995791206
38700.0,0.0015165895987303876
38800.0,0.001513516662412346
38900.0,0.0015104343284257924
39000.0,0.001507342650217771
39100.0,0.0015042414475988934
39200.0,0.0015011312373653123
39300.0,0.0014980122146423067
39400.0,0.0014948840782728877
39500.0,0.001491746644155708
39600.0,0.0014886001351815657
39700.0,0.0014854446574196732
39800.0,0.0014822805204772775
39900.0,0.0014791086161738622
40000.0,0.0014759287610791112
40100.0,0.0014727403347183086
40200.0,0.0014695431825965679
40300.0,0.0014663376176803438
40400.0,0.0014631235178368704
40500.0,0.0014599011997800597
40600.0,0.0014566710112595815
40700.0,0.0014534337971410661
40800.0,0.0014501894171509498
40900.0,0.0014469371790523729
41000.0,0.0014436770341397852
41100.0,0.0014404088493787104
41200.0,0.0014371327857874592
41300.0,0.001433849793358664
41400.0,0.001430560156410109
41500.0,0.0014272637541760502
41600.0,0.0014239603519864388
41700.0,0.0014206500368085042
41800.0,0.0014173329267381158
41900.0,0.0014140096935047132
42000.0,0.0014106806023304976
42100.0,0.001407345947205509
42200.0,0.001404005613534387
42300.0,0.0014006596885669134
42400.0,0.0013973081697424663
42500.0,0.001393951749784342
42600.0,0.0013905905931562127
42700.0,0.0013872248591597417
42800.0,0.0013838551078102946
42900.0,0.0013804813691518886
43000.0,0.0013771034331400524
43100.0,0.0013737212562047606
43200.0,0.0013703349325944894
43300.0,0.0013669447514360724
43400.0,0.001363550673034129
43500.0,0.0013601528237694633
43600.0,0.0013567511198554
43700.0,0.001353345525513828
43800.0,0.001349936087273148
43900.0,0.0013465232506310436
44000.0,0.0013431067911600745
44100.0,0.0013396867423701095
44200.0,0.0013362628747841628
44300.0,0.0013328349888196373
44400.0,0.0013294030903596857
44500.0,0.0013259670723787394
44600.0,0.0013225271551732954
44700.0,0.001319083309065317
44800.0,0.0013156352839764208
44900.0,0.001312182961135586
45000.0,0.0013087259529906867
45100.0,0.0013052645168990058
45200.0,0.001301798470840618
45300.0,0.001298327653250257
45400.0,0.0012948436325983758
45500.0,0.0012913608258469773
45600.0,0.0012878758550221654
45700.0,0.0012843868976863673
45800.0,0.0012808929746283477
45900.0,0.0012773946440462404
46000.0,0.001273892045761901
46100.0,0.001270384259094633
46200.0,0.0012668732404274162
46300.0,0.0012633601888931759
46400.0,0.0012598459600852725
46500.0,0.0012563310909622994
46600.0,0.0012528167563901395
46700.0,0.0012493028152045262
46800.0,0.0012457901797179327
46900.0,0.0012422794169335235
47000.0,0.0012387710346831113
47100.0,0.0012352654756956631
47200.0,0.0012317643987254298
47300.0,0.0012282666738304344
47400.0,0.001224772365068662
47500.0,0.0012212815051462808
47600.0,0.001217794153722004
47700.0,0.0012143101708098267
47800.0,0.0012108293409374053
47900.0,0.0012073511851358732
48000.0,0.0012038751302911757
48100.0,0.0012004004572839244
48200.0,0.0011969264823479479
48300.0,0.0011934520403404896
48400.0,0.0011899751335953084
48500.0,0.0011864956144708241
48600.0,0.0011830119311080128
48700.0,0.001179522473743839
48800.0,0.0011760252535683749
48900.0,0.0011725186147738347
49000.0,0.001169002994698296
49100.0,0.0011654783894218784
49200.0,0.0011619446170537345
49300.0,0.001158400874238218
49400.0,0.0011548470985931366
49500.0,0.001151284221421381
49600.0,0.0011477131906822177
49700.0,0.0011441309740696753
49800.0,0.0011405382847456454
49900.0,0.0011369371799966914
50000.0,0.0011333262746088847
50100.0,0.001129707395878937
50200.0,0.0011260813481162543
50300.0,0.0011224502201499856
50400.0,0.001118817594793939
50500.0,0.0011151870891723612
50600.0,0.0011115602423202346
50700.0,0.0011079425128518834
50800.0,0.001104338862623097
50900.0,0.0011007519577173317
51000.0,0.00109718552821327
51100.0,0.0010936437218865
51200.0,0.0010901286541764683
51300.0,0.0010866421300637886
51400.0,0.0010831857434373754
51500.0,0.0010797616117748997
51600.0,0.0010763705248887218
51700.0,0.0010730123967289576
51800.0,0.001069687037930614
51900.0,0.0010663942947181958
52000.0,0.0010631327674633633
52100.0,0.0010599003610877416
52200.0,0.001056694267424759
52300.0,0.0010535107449784107
52400.0,0.001050345208854578
52500.0,0.0010471925964595098
52600.0,0.001044046810786146
52700.0,0.0010409004897695114
52800.0,0.0010377458869475912
52900.0,0.001034574603412632
53000.0,0.0010313797781790603
53100.0,0.0010281532113789137
53200.0,0.0010248847317977136
53300.0,0.0010215702084485317
53400.0,0.001018203903404819
53500.0,0.0010147772316540136
53600.0,0.0010112850356350385
53700.0,0.0010077195433979896
53800.0,0.0010040758146927099
53900.0,0.0010003486495300863
54000.0,9.96535551011488E-4
54100.0,9.926345631329297E-4
54200.0,9.88646708672273E-4
54300.0,9.845732526688037E-4
54400.0,9.804145912871657E-4
54500.0,9.761743418987051E-4
54600.0,9.718643675680602E-4
54700.0,9.67500136376418E-4
54800.0,9.630820043583365E-4
54900.0,9.586272277775029E-4
55000.0,9.541553641377542E-4
55100.0,9.496839966968048E-4
55200.0,9.452337734418509E-4
55300.0,9.408277915431225E-4
55400.0,9.364921039278611E-4
55500.0,9.322564901087752E-4
55600.0,9.281521905861596E-4
55700.0,9.24204052375699E-4
55800.0,9.204279713069732E-4
55900.0,9.168327906423273E-4
56000.0,9.134314665347117E-4
56100.0,9.102352466191672E-4
56200.0,9.072515778684526E-4
56300.0,9.044842421363127E-4
56400.0,9.019332593296852E-4
56500.0,8.995946847601946E-4
56600.0,8.974600336249661E-4
56700.0,8.955172663667105E-4
56800.0,8.937493742671368E-4
56900.0,8.921333725750652E-4
57000.0,8.906400627178258E-4
57100.0,8.892325886339499E-4
57200.0,8.878684139355012E-4
57300.0,8.864998943791157E-4
57400.0,8.85065913218255E-4
57500.0,8.835139963040672E-4
57600.0,8.817837915386303E-4
57700.0,8.79816719427095E-4
57800.0,8.775521236249028E-4
57900.0,8.749323475888115E-4
58000.0,8.719041152782797E-4
58100.0,8.684175622669053E-4
58200.0,8.64428976301337E-4
58300.0,8.599081059170997E-4
58400.0,8.548325242101955E-4
58500.0,8.491859010767307E-4
58600.0,8.429450916416989E-4
58700.0,8.361173190465475E-4
58800.0,8.287185853638136E-4
58900.0,8.207856174526076E-4
59000.0,8.123919914659218E-4
59100.0,8.03584697942219E-4
59200.0,7.944509218218854E-4
59300.0,7.850865916181873E-4
59400.0,7.755955041583744E-4
59500.0,7.661115416332992E-4
59600.0,7.567666794939602E-4
59700.0,7.477021486775339E-4
59800.0,7.390554156724536E-4
59900.0,7.30968266894283E-4
60000.0,7.23598032106595E-4
60100.0,7.171069355388984E-4
60200.0,7.116474605850028E-4
60300.0,7.073449029819516E-4
60400.0,7.04292137928285E-4
60500.0,7.025470551845486E-4
60600.0,7.021353686321463E-4
60700.0,7.030740540706847E-4
60800.0,7.0534297354706E-4
60900.0,7.088751185846244E-4
61000.0,7.135652384196694E-4
61100.0,7.192603915698825E-4
61200.0,7.257927906456162E-4
61300.0,7.329473240302526E-4
61400.0,7.40479362355427E-4
61500.0,7.4813944130502E-4
61600.0,7.556473553725067E-4
61700.0,7.627397337303666E-4
61800.0,7.691438432438093E-4
61900.0,7.745856751718949E-4
62000.0,7.787971261636264E-4
62100.0,7.814972604483026E-4
62200.0,7.824035990207356E-4
62300.0,7.813048983906505E-4
62400.0,7.780288884172353E-4
62500.0,7.724182041683689E-4
62600.0,7.643676829535558E-4
62700.0,7.538004587878424E-4
62800.0,7.406521766268702E-4
62900.0,7.24982054496291E-4
63000.0,7.068305790593076E-4
63100.0,6.864282039811782E-4
63200.0,6.641586294900164E-4
63300.0,6.403476765034437E-4
63400.0,6.154433355948422E-4
63500.0,5.900810904373221E-4
63600.0,5.649992604972733E-4
63700.0,5.409921895729394E-4
63800.0,5.190371343058206E-4
63900.0,5.001732994725822E-4
64000.0,4.8540051488342136E-4
64100.0,4.7564212036464964E-4
64200.0,4.7160101057755347E-4
64300.0,4.7358397733327526E-4
64400.0,4.8143221544151126E-4
64500.0,4.946162706616752E-4
64600.0,5.122908321472916E-4
64700.0,5.33432516589067E-4
64800.0,5.569446032676132E-4
64900.0,5.817046202684273E-4
65000.0,6.067043287822219E-4
65100.0,6.30963224467772E-4
65200.0,6.536537496276168E-4
65300.0,6.740153748781506E-4
65400.0,6.913672451403022E-4
65500.0,7.051464621621366E-4
65600.0,7.148068322370845E-4
65700.0,7.198644494740726E-4
65800.0,7.198976072635303E-4
65900.0,7.146912323713152E-4
66000.0,7.040917819054479E-4
66100.0,6.878992602511847E-4
66200.0,6.658810050845543E-4
66300.0,6.383520248229504E-4
66400.0,6.057201941072026E-4
66500.0,5.691236766137529E-4
66600.0,5.297457273531525E-4
66700.0,4.894796754279793E-4
66800.0,4.508777931920532E-4
66900.0,4.173635159680004E-4
67000.0,3.9297995527425375E-4
67100.0,3.81359294942534E-4
67200.0,3.8482012746054827E-4
67300.0,4.030387989246332E-4
67400.0,4.332310868046803E-4
67500.0,4.7160037702555815E-4
67600.0,5.144958630728103E-4
67700.0,5.588611777758483E-4
67800.0,6.023587042469239E-4
